Time Pressure Rate
0 0.001388889505 264.90255737305 600000
1 0.001458333572 264.0924987793 600000
2 0.001531250426 263.38037109375 600000
3 0.001607812825 262.70281982422 600000
4 0.001688203076 262.04684448242 600000
5 0.001772613614 261.40582275391 600000
6 0.00186124316 260.7770690918 600000
7 0.001954305684 260.15756225586 600000
8 0.002052021679 259.54656982422 600000
9 0.002154621761 258.94155883789 600000
10 0.002262352966 258.34246826172 600000
11 0.002375472104 257.74743652344 600000
12 0.002494248096 257.15667724609 600000
13 0.002618951956 256.56866455078 600000
14 0.002749896143 255.98371887207 600000
15 0.002887391951 255.40075683594 600000
16 0.003031775821 254.81945800781 600000
17 0.003183359746 254.23976135254 600000
18 0.003342527896 253.66079711914 600000
19 0.003509663977 253.08303833008 600000
20 0.003685127944 252.50537109375 600000
21 0.003869400127 251.92852783203 600000
22 0.004062863998 251.35166931152 600000
23 0.004265999887 250.77507019043 600000
24 0.004479312338 250.19819641113 600000
25 0.00470328005 249.62158203125 600000
26 0.004938432015 249.04434204102 600000
27 0.005185368005 248.4669342041 600000
28 0.005444616079 247.88873291016 600000
29 0.005716848187 247.30981445313 600000
30 0.006002687849 246.73040771484 600000
31 0.00630283216 246.15008544922 600000
32 0.006617975421 245.56922912598 600000
33 0.006948864087 244.98707580566 600000
34 0.007296311669 244.40408325195 600000
35 0.007661136333 243.82000732422 600000
36 0.008044200018 243.23515319824 600000
37 0.008446391672 242.64923095703 600000
38 0.008868720382 242.06240844727 600000
39 0.009312144481 241.47424316406 600000
40 0.009777767584 240.88555908203 600000
41 0.01026664861 240.29530334473 600000
42 0.0107799843 239.7041015625 600000
43 0.01131897606 239.11164855957 600000
44 0.0118849203 238.51808166504 600000
45 0.0124791842 237.92337036133 600000
46 0.01310313586 237.3272857666 600000
47 0.01375828777 236.72993469238 600000
48 0.0144462008 236.13140869141 600000
49 0.01516852714 235.5318145752 600000
50 0.01592695154 234.93086242676 600000
51 0.01672329754 234.32911682129 600000
52 0.03344659507 226.68563842773 600000
53 0.05016986281 221.70509338379 600000
54 0.06689316034 217.8621673584 600000
55 0.08361645788 214.79698181152 600000
56 0.1003397554 212.26116943359 600000
57 0.1170630455 210.10357666016 600000
58 0.1337863207 208.22663879395 600000
59 0.1505096108 206.56756591797 600000
60 0.1672329158 205.08038330078 600000
61 0.1839562058 203.73281860352 600000
62 0.2006795108 202.50094604492 600000
63 0.217402786 201.3660736084 600000
64 0.2341260612 200.31437683105 600000
65 0.2508493662 199.33340454102 600000
66 0.2675726414 198.41513061523 600000
67 0.2842959762 197.55178833008 600000
68 0.3010192513 196.73611450195 600000
69 0.3177425265 195.96408081055 600000
70 0.3344658315 195.23095703125 600000
71 0.3511891067 194.53271484375 600000
72 0.3679124117 193.86633300781 600000
73 0.3846356869 193.2287902832 600000
74 0.4013589621 192.61734008789 600000
75 0.418082267 192.03076171875 600000
76 0.434805572 191.4663848877 600000
77 0.451528877 190.92295837402 600000
78 0.468252182 190.39851379395 600000
79 0.4849754572 189.89178466797 600000
80 0.5016987324 189.40208435059 600000
81 0.5184220672 188.92791748047 600000
82 0.5351452827 188.46812438965 600000
83 0.5518686175 188.02239990234 600000
84 0.5685918927 187.58941650391 600000
85 0.5853151679 187.16841125488 600000
86 0.6020385027 186.75910949707 600000
87 0.6187617779 186.36064147949 600000
88 0.6354851127 185.97241210938 600000
89 0.6522083282 185.59376525879 600000
90 0.668931663 185.22451782227 600000
91 0.6856549382 184.86415100098 600000
92 0.7023782134 184.51202392578 600000
93 0.7191015482 184.16777038574 600000
94 0.7358248234 183.83135986328 600000
95 0.7525480986 183.50218200684 600000
96 0.7692713737 183.17994689941 600000
97 0.7859947085 182.86427307129 600000
98 0.8027180433 182.55499267578 600000
99 0.8194413185 182.25198364258 600000
100 0.8361645341 181.95484924316 600000
101 0.8528878689 181.66329956055 600000
102 0.8696111441 181.37715148926 600000
103 0.8863344193 181.09623718262 600000
104 0.903057754 180.8204498291 600000
105 0.9197810888 180.54948425293 600000
106 0.9365042448 180.28324890137 600000
107 0.9532275796 180.02146911621 600000
108 0.9699509144 179.76399230957 600000
109 0.9866741896 179.51091003418 600000
110 1.003397465 179.26182556152 600000
111 1.020120859 179.01667785645 600000
112 1.036844134 178.77528381348 600000
113 1.05356729 178.53756713867 600000
114 1.070290565 178.30339050293 600000
115 1.08701396 178.07275390625 600000
116 1.103737235 177.84548950195 600000
117 1.12046051 177.62149047852 600000
118 1.137183905 177.40074157715 600000
119 1.15390718 177.18295288086 600000
120 1.170630336 176.96815490723 600000
121 1.187353611 176.75624084473 600000
122 1.204077005 176.54722595215 600000
123 1.220800281 176.3409576416 600000
124 1.237523556 176.13731384277 600000
125 1.254246831 175.93635559082 600000
126 1.270970106 175.7378692627 600000
127 1.287693381 175.54182434082 600000
128 1.304416656 175.34820556641 600000
129 1.321140051 175.15689086914 600000
130 1.337863326 174.96806335449 600000
131 1.354586601 174.78135681152 600000
132 1.371309876 174.59683227539 600000
133 1.388033152 174.41450500488 600000
134 1.404756427 174.23416137695 600000
135 1.421479702 174.05584716797 600000
136 1.438203096 173.87951660156 600000
137 1.454926372 173.705078125 600000
138 1.471649647 173.53262329102 600000
139 1.488372922 173.36204528809 600000
140 1.505096197 173.19325256348 600000
141 1.521819592 173.02621459961 600000
142 1.538542747 172.86097717285 600000
143 1.555266023 172.69735717773 600000
144 1.571989417 172.53540039063 600000
145 1.588712692 172.37507629395 600000
146 1.605436087 172.21629333496 600000
147 1.622159243 172.05908203125 600000
148 1.638882637 171.90354919434 600000
149 1.655605793 171.74942016602 600000
150 1.672329068 171.59672546387 600000
151 1.689052463 171.44551086426 600000
152 1.705775738 171.29573059082 600000
153 1.722499132 171.14729309082 600000
154 1.739222288 171.00021362305 600000
155 1.755945683 170.85446166992 600000
156 1.772668839 170.71000671387 600000
157 1.789392114 170.56683349609 600000
158 1.806115508 170.42495727539 600000
159 1.822838783 170.28437805176 600000
160 1.839562178 170.14495849609 600000
161 1.856285334 170.0066986084 600000
162 1.87300849 169.86965942383 600000
163 1.889731884 169.73376464844 600000
164 1.906455159 169.59899902344 600000
165 1.923178554 169.46531677246 600000
166 1.939901829 169.33274841309 600000
167 1.956625223 169.20124816895 600000
168 1.973348379 169.07080078125 600000
169 1.990071535 168.94139099121 600000
170 2.00679493 168.81314086914 600000
171 2.023518085 168.68579101563 600000
172 2.040241718 168.55940246582 600000
173 2.056964874 168.43397521973 600000
174 2.073688269 168.30952453613 600000
175 2.090411425 168.18605041504 600000
176 2.107134581 168.06346130371 600000
177 2.123857975 167.94180297852 600000
178 2.140581131 167.82099914551 600000
179 2.157304764 167.70112609863 600000
180 2.17402792 167.58210754395 600000
181 2.190751314 167.46394348145 600000
182 2.20747447 167.34664916992 600000
183 2.224197626 167.23028564453 600000
184 2.240921021 167.1146697998 600000
185 2.257644176 166.99983215332 600000
186 2.274367809 166.88578796387 600000
187 2.291090965 166.77255249023 600000
188 2.307814121 166.66009521484 600000
189 2.324537516 166.54840087891 600000
190 2.341260672 166.43743896484 600000
191 2.357984066 166.32722473145 600000
192 2.374707222 166.21774291992 600000
193 2.391430855 166.10897827148 600000
194 2.408154011 166.00093078613 600000
195 2.424877167 165.89356994629 600000
196 2.441600561 165.78692626953 600000
197 2.458323717 165.68104553223 600000
198 2.475047112 165.57580566406 600000
199 2.491770267 165.47119140625 600000
200 2.5084939 165.36724853516 600000
201 2.525217056 165.26391601563 600000
202 2.541940212 165.1612701416 600000
203 2.558663607 165.05928039551 600000
204 2.575386763 164.95788574219 600000
205 2.592110157 164.85710144043 600000
206 2.608833313 164.75691223145 600000
207 2.625556946 164.65733337402 600000
208 2.642280102 164.55834960938 600000
209 2.659003258 164.45994567871 600000
210 2.675726652 164.36212158203 600000
211 2.692449808 164.26486206055 600000
212 2.709173203 164.16821289063 600000
213 2.725896358 164.07215881348 600000
214 2.742619753 163.97662353516 600000
215 2.759343147 163.88160705566 600000
216 2.776066303 163.78712463379 600000
217 2.792789698 163.69314575195 600000
218 2.809512854 163.59973144531 600000
219 2.826236248 163.50685119629 600000
220 2.842959404 163.4144744873 600000
221 2.859682798 163.32260131836 600000
222 2.8764061930000002 163.23121643066 600000
223 2.893129349 163.14031982422 600000
224 2.909852743 163.0499420166 600000
225 2.926575899 162.96003723145 600000
226 2.943299294 162.87062072754 600000
227 2.960022449 162.78167724609 600000
228 2.976745844 162.69319152832 600000
229 2.993469238 162.60517883301 600000
230 3.010192394 162.51766967773 600000
231 3.026915789 162.43061828613 600000
232 3.043639183 162.34399414063 600000
233 3.060362339 162.25779724121 600000
234 3.077085495 162.17202758789 600000
235 3.093809128 162.08670043945 600000
236 3.110532045 162.0018157959 600000
237 3.12725544 161.91737365723 600000
238 3.143978834 161.83334350586 600000
239 3.160702229 161.7497253418 600000
240 3.177425385 161.66650390625 600000
241 3.19414854 161.58369445801 600000
242 3.210872173 161.50128173828 600000
243 3.227595091 161.41928100586 600000
244 3.244318485 161.33767700195 600000
245 3.26104188 161.25646972656 600000
246 3.277765274 161.1756439209 600000
247 3.29448843 161.09521484375 600000
248 3.311211586 161.01515197754 600000
249 3.327935219 160.93550109863 600000
250 3.344658136 160.85624694824 600000
251 3.361381531 160.77735900879 600000
252 3.378104925 160.6988067627 600000
253 3.39482832 160.62060546875 600000
254 3.411551476 160.54275512695 600000
255 3.428274632 160.4652557373 600000
256 3.444998264 160.38813781738 600000
257 3.461721182 160.3113861084 600000
258 3.478444576 160.23497009277 600000
259 3.495167971 160.15888977051 600000
260 3.511890888 160.0831451416 600000
261 3.528614521 160.00772094727 600000
262 3.545337677 159.93263244629 600000
263 3.56206131 159.85787963867 600000
264 3.578784227 159.78346252441 600000
265 3.595507622 159.70936584473 600000
266 3.612231016 159.63558959961 600000
267 3.628953934 159.56213378906 600000
268 3.645677567 159.4889831543 600000
269 3.662400723 159.41613769531 600000
270 3.679124355 159.3436126709 600000
271 3.695847273 159.27143859863 600000
272 3.712570667 159.19956970215 600000
273 3.729294062 159.12799072266 600000
274 3.746016979 159.05668640137 600000
275 3.762740612 158.98567199707 600000
276 3.779463768 158.91493225098 600000
277 3.796187401 158.84449768066 600000
278 3.812910318 158.77435302734 600000
279 3.829633713 158.70449829102 600000
280 3.846357107 158.63494873047 600000
281 3.863080025 158.56567382813 600000
282 3.879803658 158.49667358398 600000
283 3.896526814 158.42794799805 600000
284 3.913250446 158.35948181152 600000
285 3.929973364 158.2912902832 600000
286 3.946696758 158.22337341309 600000
287 3.963420153 158.15573120117 600000
288 3.98014307 158.08834838867 600000
289 3.996866703 158.02122497559 600000
290 4.013589859 157.9543762207 600000
291 4.030313492 157.88778686523 600000
292 4.047036171 157.8214263916 600000
293 4.063759804 157.75534057617 600000
294 4.080483437 157.68952941895 600000
295 4.097206116 157.62399291992 600000
296 4.113929749 157.55870056152 600000
297 4.130652905 157.49365234375 600000
298 4.147376537 157.42881774902 600000
299 4.164099693 157.36421203613 600000
300 4.180822849 157.29985046387 600000
301 4.197546005 157.23571777344 600000
302 4.214269161 157.17181396484 600000
303 4.230992794 157.10818481445 600000
304 4.24771595 157.04475402832 600000
305 4.264439583 156.9815826416 600000
306 4.281162262 156.91864013672 600000
307 4.297885895 156.85591125488 600000
308 4.314609528 156.79342651367 600000
309 4.331332207 156.73114013672 600000
310 4.34805584 156.6690826416 600000
311 4.364778996 156.60723876953 600000
312 4.381502151 156.5456237793 600000
313 4.398225784 156.4842376709 600000
314 4.41494894 156.42306518555 600000
315 4.431672096 156.36210632324 600000
316 4.448395252 156.30136108398 600000
317 4.465118885 156.24082946777 600000
318 4.481842041 156.18049621582 600000
319 4.498565674 156.12036132813 600000
320 4.515288353 156.06045532227 600000
321 4.532011986 156.00079345703 600000
322 4.548735619 155.94132995605 600000
323 4.565458298 155.88208007813 600000
324 4.582181931 155.82301330566 600000
325 4.598905087 155.76412963867 600000
326 4.615628719 155.70542907715 600000
327 4.632351875 155.64692687988 600000
328 4.649075031 155.58862304688 600000
329 4.665798187 155.53048706055 600000
330 4.682521343 155.47257995605 600000
331 4.699244976 155.41485595703 600000
332 4.715968132 155.35733032227 600000
333 4.732691288 155.29998779297 600000
334 4.749414444 155.24282836914 600000
335 4.766138077 155.18586730957 600000
336 4.78286171 155.12908935547 600000
337 4.799584389 155.07247924805 600000
338 4.816308022 155.01605224609 600000
339 4.833031178 154.95980834961 600000
340 4.849754333 154.9037322998 600000
341 4.866477966 154.84785461426 600000
342 4.883201122 154.79216003418 600000
343 4.899924278 154.73663330078 600000
344 4.916647434 154.68128967285 600000
345 4.933371067 154.6261138916 600000
346 4.950094223 154.57110595703 600000
347 4.966817379 154.51628112793 600000
348 4.983540535 154.46160888672 600000
349 5.000264168 154.40711975098 600000
350 5.016987801 154.35284423828 600000
351 5.03371048 154.29872131348 600000
352 5.050434113 154.24476623535 600000
353 5.067157269 154.19097900391 600000
354 5.083880424 154.13734436035 600000
355 5.100604057 154.08386230469 600000
356 5.117327213 154.03053283691 600000
357 5.134050369 153.97737121582 600000
358 5.150773525 153.92436218262 600000
359 5.167497158 153.8715057373 600000
360 5.184220314 153.81880187988 600000
361 5.20094347 153.76626586914 600000
362 5.217666626 153.71389770508 600000
363 5.234390259 153.6616973877 600000
364 5.251113892 153.60963439941 600000
365 5.267836571 153.55772399902 600000
366 5.284560204 153.50596618652 600000
367 5.30128336 153.45436096191 600000
368 5.318006516 153.40289306641 600000
369 5.334730148 153.3515625 600000
370 5.351453304 153.30039978027 600000
371 5.36817646 153.24937438965 600000
372 5.384899616 153.1985168457 600000
373 5.401623249 153.14778137207 600000
374 5.418346405 153.09721374512 600000
375 5.435069561 153.04678344727 600000
376 5.451792717 152.99649047852 600000
377 5.46851635 152.94635009766 600000
378 5.485239983 152.8963470459 600000
379 5.501962662 152.84648132324 600000
380 5.518686295 152.79675292969 600000
381 5.535409451 152.74716186523 600000
382 5.552132607 152.69775390625 600000
383 5.568856239 152.64846801758 600000
384 5.585579395 152.5993347168 600000
385 5.602302551 152.55033874512 600000
386 5.619025707 152.50144958496 600000
387 5.63574934 152.45269775391 600000
388 5.652472496 152.40406799316 600000
389 5.669195652 152.35557556152 600000
390 5.685918808 152.3072052002 600000
391 5.702642441 152.25897216797 600000
392 5.719365597 152.21084594727 600000
393 5.736088753 152.16285705566 600000
394 5.7528123860000004 152.11502075195 600000
395 5.769535542 152.06730651855 600000
396 5.786258698 152.01971435547 600000
397 5.80298233 151.97225952148 600000
398 5.819705486 151.92492675781 600000
399 5.8364286419999996 151.87773132324 600000
400 5.853151798 151.8306427002 600000
401 5.869875431 151.78369140625 600000
402 5.886598587 151.73684692383 600000
403 5.903321743 151.69012451172 600000
404 5.920044899 151.64350891113 600000
405 5.936768532 151.59704589844 600000
406 5.953491688 151.55068969727 600000
407 5.970214844 151.50445556641 600000
408 5.986938477 151.45834350586 600000
409 6.003661156 151.41235351563 600000
410 6.020384789 151.3664855957 600000
411 6.037108421 151.3207244873 600000
412 6.053831577 151.27508544922 600000
413 6.070554733 151.22956848145 600000
414 6.087278366 151.1841583252 600000
415 6.104001045 151.13887023926 600000
416 6.120724678 151.09367370605 600000
417 6.137447834 151.04861450195 600000
418 6.15417099 151.00369262695 600000
419 6.170894623 150.95887756348 600000
420 6.187618256 150.91418457031 600000
421 6.204341412 150.86959838867 600000
422 6.221064091 150.82511901855 600000
423 6.237787247 150.78074645996 600000
424 6.25451088 150.7364654541 600000
425 6.271234512 150.69229125977 600000
426 6.287957668 150.64822387695 600000
427 6.304680824 150.60426330566 600000
428 6.321404457 150.5604095459 600000
429 6.338127136 150.51664733887 600000
430 6.354850769 150.47300720215 600000
431 6.371573925 150.42947387695 600000
432 6.388297081 150.38604736328 600000
433 6.405020714 150.34272766113 600000
434 6.421744347 150.29951477051 600000
435 6.438467503 150.2564239502 600000
436 6.455190182 150.21340942383 600000
437 6.471913338 150.17051696777 600000
438 6.488636971 150.12771606445 600000
439 6.505360603 150.08500671387 600000
440 6.522083759 150.0424041748 600000
441 6.538806915 149.99989318848 600000
442 6.555530548 149.95747375488 600000
443 6.572253227 149.91516113281 600000
444 6.58897686 149.87295532227 600000
445 6.605700016 149.83085632324 600000
446 6.622423172 149.78883361816 600000
447 6.639146805 149.74691772461 600000
448 6.655870438 149.70512390137 600000
449 6.672593594 149.66340637207 600000
450 6.689316273 149.62178039551 600000
451 6.706039429 149.58026123047 600000
452 6.722763062 149.53883361816 600000
453 6.739486694 149.49749755859 600000
454 6.75620985 149.45625305176 600000
455 6.772933006 149.41510009766 600000
456 6.789655685 149.37405395508 600000
457 6.806379318 149.33309936523 600000
458 6.823102951 149.29225158691 600000
459 6.839826107 149.25151062012 600000
460 6.856549263 149.21086120605 600000
461 6.873272896 149.17028808594 600000
462 6.889996529 149.12982177734 600000
463 6.906719685 149.0894317627 600000
464 6.923442364 149.04911804199 600000
465 6.94016552 149.00889587402 600000
466 6.956889153 148.96876525879 600000
467 6.973612785 148.9287109375 600000
468 6.990335941 148.88874816895 600000
469 7.007059097 148.84887695313 600000
470 7.02378273 148.80906677246 600000
471 7.040505409 148.76936340332 600000
472 7.057229042 148.72975158691 600000
473 7.073952198 148.69021606445 600000
474 7.090675354 148.65077209473 600000
475 7.107398987 148.61143493652 600000
476 7.12412262 148.57217407227 600000
477 7.140845299 148.53298950195 600000
478 7.157568455 148.49389648438 600000
479 7.174291611 148.45489501953 600000
480 7.191015244 148.41595458984 600000
481 7.207738876 148.37710571289 600000
482 7.224462032 148.33833312988 600000
483 7.241185188 148.29965209961 600000
484 7.257907867 148.26104736328 600000
485 7.2746315 148.2225189209 600000
486 7.291355133 148.18406677246 600000
487 7.308078289 148.14570617676 600000
488 7.324801445 148.10743713379 600000
489 7.341525078 148.06922912598 600000
490 7.358248711 148.0311126709 600000
491 7.37497139 147.99308776855 600000
492 7.391694546 147.95512390137 600000
493 7.408417702 147.91723632813 600000
494 7.425141335 147.87944030762 600000
495 7.441864967 147.84172058105 600000
496 7.458588123 147.80407714844 600000
497 7.475311279 147.76651000977 600000
498 7.492033958 147.72901916504 600000
499 7.508757591 147.69160461426 600000
500 7.525481224 147.65426635742 600000
501 7.54220438 147.61700439453 600000
502 7.558927536 147.57983398438 600000
503 7.575651169 147.54273986816 600000
504 7.592374802 147.5057220459 600000
505 7.609097481 147.46878051758 600000
506 7.625820637 147.43193054199 600000
507 7.642543793 147.39514160156 600000
508 7.659267426 147.35842895508 600000
509 7.675991058 147.32177734375 600000
510 7.692714214 147.28520202637 600000
511 7.70943737 147.24867248535 600000
