Time Pressure Rate
0 0.0002496000088 286.21643066406 400000.0
1 0.00027600000610000005 285.56378173828 400000.0
2 0.0003024000034 284.9880065918 400000.0
3 0.0003336000082 284.38052368164 400000.0
4 0.0003672000021000001 283.79064941406 400000.0
5 0.0004032000143 283.21673583984 400000.0
6 0.0004440000048 282.62539672852 400000.0
7 0.0004871999845 282.05288696289 400000.0
8 0.000537600019 281.44464111328 400000.0
9 0.0005904000136000001 280.86044311523 400000.0
10 0.0006504000048 280.25338745117 400000.0
11 0.0007151999743999999 279.65237426758 400000.0
12 0.0007848000387 279.05895996094 400000.0
13 0.0008640000597 278.44030761719 400000.0
14 0.0009504000191 277.82073974609 400000.0
15 0.001046400052 277.189453125 400000.0
16 0.001149600022 276.56600952148 400000.0
17 0.001264800085 275.92794799805 400000.0
18 0.001392000006 275.28173828125 400000.0
19 0.001531200018 274.63235473633 400000.0
20 0.001684800023 273.97561645508 400000.0
21 0.001852799905 273.31701660156 400000.0
22 0.002037599916 272.65252685547 400000.0
23 0.002241599839 271.98043823242 400000.0
24 0.002464800142 271.30615234375 400000.0
25 0.002712000161 270.62194824219 400000.0
26 0.002983199898 269.93478393555 400000.0
27 0.003280799836 269.24444580078 400000.0
28 0.003609600011 268.54626464844 400000.0
29 0.003971999977 267.84240722656 400000.0
30 0.004368000198 267.13864135742 400000.0
31 0.004804799799 266.42846679688 400000.0
32 0.005284800194 265.71466064453 400000.0
33 0.005812800024 264.99700927734 400000.0
34 0.0063959998080000005 264.27297973633 400000.0
35 0.007034399547 263.54861450195 400000.0
36 0.007737600245 262.81982421875 400000.0
37 0.008512799627999999 262.08609008789 400000.0
38 0.009362399578 261.35159301758 400000.0
39 0.01029840019 260.61270141602 400000.0
40 0.01133039966 259.86947631836 400000.0
41 0.012463199909999998 259.12466430664 400000.0
42 0.013708800080000002 258.37741088867 400000.0
43 0.015079200269999997 257.62750244141 400000.0
44 0.016586400569999996 256.87506103516 400000.0
45 0.018247200180000003 256.11901855469 400000.0
46 0.020071201030000003 255.36166381836003 400000.0
47 0.0220776014 254.60208129883 400000.0
48 0.02428559959 253.83975219727 400000.0
49 0.02671439946 253.0753326416 400000.0
50 0.02938560024 252.3090057373 400000.0
51 0.03232559934 251.53999328613 400000.0
52 0.03555599973 250.76991271973 400000.0
53 0.03911279887 249.99740600586003 400000.0
54 0.04302480072 249.22320556641003 400000.0
55 0.04732559994 248.44755554198997 400000.0
56 0.05205840245 247.66995239258 400000.0
57 0.05726400017999999 246.89065551758 400000.0
58 0.06299039721 246.10969543457 400000.0
59 0.06929039955 245.32685852051003 400000.0
60 0.07621920109000001 244.54237365723 400000.0
61 0.08384159952 243.75636291503997 400000.0
62 0.0922247991 242.96890258788997 400000.0
63 0.1014479995 242.17964172363 400000.0
64 0.1115927994 241.38893127441003 400000.0
65 0.1227528006 240.59672546387 400000.0
66 0.1350263953 239.80328369141003 400000.0
67 0.1485287994 239.00827026367 400000.0
68 0.163382411 238.21180725098 400000.0
69 0.1797216088 237.41387939453 400000.0
70 0.1976927966 236.61465454102 400000.0
71 0.217461586 235.81394958496003 400000.0
72 0.2392080128 235.01153564453 400000.0
73 0.2631287873 234.20765686035 400000.0
74 0.28944242 233.40237426758 400000.0
75 0.3183863759 232.59571838378997 400000.0
76 0.350224793 231.78744506836003 400000.0
77 0.3852480054 230.97779846191003 400000.0
78 0.4237728119 230.16674804688 400000.0
79 0.4661495984 229.35438537598 400000.0
80 0.5127648115 228.54052734375 400000.0
81 0.5640407801 227.72528076172 400000.0
82 0.6204456091 226.90853881836003 400000.0
83 0.6824904084000001 226.09039306641003 400000.0
84 0.7507392168000001 225.27072143555 400000.0
85 0.8258136511 224.44929504395 400000.0
86 0.9083951712 223.62632751465 400000.0
87 0.9992352724 222.8018951416 400000.0
88 1.099159241 221.9759979248 400000.0
89 1.209074378 221.14842224121003 400000.0
90 1.329981565 220.31924438477 400000.0
91 1.462980032 219.48852539063 400000.0
92 1.609276772 218.65634155273 400000.0
93 1.770203948 217.82252502441003 400000.0
94 1.947225571 216.98719787598 400000.0
95 2.141947269 216.15019226073997 400000.0
96 2.356142282 215.31163024902 400000.0
97 2.591757536 214.47134399413997 400000.0
98 2.850933552 213.62910461426003 400000.0
99 3.136027336 212.78504943848 400000.0
100 3.449627876 211.93943786621003 400000.0
101 3.794591904 211.09202575683997 400000.0
102 4.174051285 210.24287414551003 400000.0
103 4.59145689 209.39176940918 400000.0
104 5.050600529 208.53884887695 400000.0
105 5.555661678 207.68417358398 400000.0
106 6.111227989 206.82775878906003 400000.0
107 6.722352028 205.96936035156003 400000.0
108 7.39458704 205.1091003418 400000.0
109 8.134044647 204.24685668945 400000.0
110 8.947449684 203.38264465332 400000.0
111 9.842193604 202.5163269043 400000.0
112 10.82641411 201.64781188965 400000.0
113 11.90905476 200.77732849121003 400000.0
114 13.09996033 199.9048614502 400000.0
115 14.40995693 199.03021240233997 400000.0
116 15.85095119 198.07202148438 400000.0
117 17.43604851 197.173828125 400000.0
118 19.17965317 196.2777557373 400000.0
119 21.0976181 195.38188171387 400000.0
120 23.20737839 194.48570251465 400000.0
121 25.52811432 193.58877563477 400000.0
122 27.84885025 192.6912774659189 400000.0
123 30.169586180000003 191.93404993482662 400000.0
124 32.49032211 191.2362540890886 400000.0
125 34.81105804 190.58790279429024 400000.0
126 37.13179397 189.98182889318505 400000.0
127 39.4525299 189.41304944022102 400000.0
128 41.77326582999999 188.84482769832528 400000.0
129 44.09400175999999 188.3289408817543 400000.0
130 46.41473768999999 187.8388804648586 400000.0
131 48.73547361999999 187.37285309088904 400000.0
132 51.056209549999984 186.92902122337546 400000.0
133 53.37694547999998 186.46542624550125 400000.0
134 55.69768140999998 186.058836395507 400000.0
135 58.01841733999998 185.6700726555122 400000.0
136 60.33915326999998 185.29703528806948 400000.0
137 62.659889199999974 184.9382320894836 400000.0
138 64.98062512999998 184.59278110413592 400000.0
139 67.30136105999998 184.2393927811915 400000.0
140 69.62209698999997 183.91233551496413 400000.0
141 71.94283291999997 182.99314880371003 400000.0
142 74.26356884999997 182.99314880371003 400000.0
143 76.58430477999997 182.99314880371003 400000.0
144 78.90504070999997 182.99314880371003 400000.0
145 81.22577663999995 182.99314880371003 400000.0
146 83.54651256999995 182.99314880371003 400000.0
147 85.86724849999995 182.99314880371003 400000.0
148 88.18798442999996 182.99314880371003 400000.0
149 90.50872035999996 182.99314880371003 400000.0
150 92.82945628999997 182.99314880371003 400000.0
151 95.15019221999997 182.99314880371003 400000.0
152 97.47092814999996 182.99314880371003 400000.0
153 99.79166407999996 182.99314880371003 400000.0
154 102.11240000999994 182.99314880371003 400000.0
155 104.43313593999994 182.99314880371003 400000.0
156 106.75387186999994 182.99314880371003 400000.0
157 109.07460779999994 182.99314880371003 400000.0
158 111.39534372999994 182.99314880371003 400000.0
159 113.71607965999992 182.99314880371003 400000.0
160 116.03681558999992 182.99314880371003 400000.0
161 118.35755151999993 182.99314880371003 400000.0
162 120.67828744999993 182.99314880371003 400000.0
163 122.99902337999993 182.99314880371003 400000.0
164 125.31975930999992 182.99314880371003 400000.0
165 127.64049523999992 182.99314880371003 400000.0
166 129.96123116999993 182.99314880371003 400000.0
167 132.28196709999997 182.99314880371003 400000.0
168 134.60270302999996 182.99314880371003 400000.0
169 136.92343895999997 182.99314880371003 400000.0
170 139.24417488999998 182.99314880371003 400000.0
171 141.56491082 182.99314880371003 400000.0
172 143.88564675 182.99314880371003 400000.0
173 146.20638268000005 182.99314880371003 400000.0
174 148.52711861000003 182.99314880371003 400000.0
175 150.84785454000004 182.99314880371003 400000.0
176 153.16859047000003 182.99314880371003 400000.0
177 155.4893264000001 182.99314880371003 400000.0
178 157.8100623300001 182.99314880371003 400000.0
179 160.1307982600001 182.99314880371003 400000.0
180 162.4515341900001 182.99314880371003 400000.0
181 164.77227012000014 182.99314880371003 400000.0
182 167.09300605000013 182.99314880371003 400000.0
183 169.41374198000014 182.99314880371003 400000.0
184 171.73447791000015 182.99314880371003 400000.0
185 174.05521384000016 182.99314880371003 400000.0
186 176.3759497700002 182.99314880371003 400000.0
187 178.6966857000002 182.99314880371003 400000.0
188 181.0174216300002 182.99314880371003 400000.0
189 183.33815756000016 182.99314880371003 400000.0
190 185.65889349000028 182.99314880371003 400000.0
191 187.97962942000026 182.99314880371003 400000.0
192 190.30036535000028 182.99314880371003 400000.0
193 192.62110128000026 182.99314880371003 400000.0
194 194.94183721000027 182.99314880371003 400000.0
195 197.26257314000026 182.99314880371003 400000.0
196 199.5833090700003 182.99314880371003 400000.0
197 201.9040450000003 182.99314880371003 400000.0
198 204.2247809300003 182.99314880371003 400000.0
199 206.54551686000042 182.99314880371003 400000.0
200 208.86625279000043 182.99314880371003 400000.0
201 211.18698872000041 182.99314880371003 400000.0
202 213.50772465000043 182.99314880371003 400000.0
203 215.8284605800004 182.99314880371003 400000.0
204 218.14919651000042 182.99314880371003 400000.0
205 220.4699324400004 182.99314880371003 400000.0
206 222.79066837000042 182.99314880371003 400000.0
207 225.11140430000043 182.99314880371003 400000.0
208 227.4321402300004 182.99314880371003 400000.0
209 229.75287616000043 182.99314880371003 400000.0
210 232.07361209000047 182.99314880371003 400000.0
211 234.39434802000042 182.99314880371003 400000.0
212 236.7150839500005 182.99314880371003 400000.0
213 239.0358198800005 182.99314880371003 400000.0
214 241.35655581000046 182.99314880371003 400000.0
215 243.67729174000053 182.99314880371003 400000.0
216 245.99802767000054 182.99314880371003 400000.0
217 248.31876360000047 182.99314880371003 400000.0
218 250.63949953000056 182.99314880371003 400000.0
219 252.96023546000058 182.99314880371003 400000.0
220 255.28097139000062 182.99314880371003 400000.0
221 257.60170732000057 182.99314880371003 400000.0
222 259.9224432500006 182.99314880371003 400000.0
223 262.2431791800006 182.99314880371003 400000.0
224 264.5639151100006 182.99314880371003 400000.0
225 266.8846510400006 182.99314880371003 400000.0
226 269.20538697000063 182.99314880371003 400000.0
227 271.5261229000006 182.99314880371003 400000.0
228 273.8468588300006 182.99314880371003 400000.0
229 276.16759476000067 182.99314880371003 400000.0
230 278.4883306900007 182.99314880371003 400000.0
231 280.8090666200007 182.99314880371003 400000.0
232 283.1298025500007 182.99314880371003 400000.0
233 285.4505384800006 182.99314880371003 400000.0
234 287.7712744100008 182.99314880371003 400000.0
235 290.09201034000074 182.99314880371003 400000.0
236 292.41274627000075 182.99314880371003 400000.0
237 294.7334822000008 182.99314880371003 400000.0
238 297.0542181300008 182.99314880371003 400000.0
239 299.3749540600008 182.99314880371003 400000.0
240 301.6956899900008 182.99314880371003 400000.0
241 304.0164259200008 182.99314880371003 400000.0
242 306.3371618500008 182.99314880371003 400000.0
243 308.6578977800008 182.99314880371003 400000.0
244 310.9786337100008 182.99314880371003 400000.0
245 313.29936964000086 182.99314880371003 400000.0
246 315.6201055700009 182.99314880371003 400000.0
247 317.9408415000009 182.99314880371003 400000.0
248 320.2615774300009 182.99314880371003 400000.0
249 322.5823133600008 182.99314880371003 400000.0
250 324.90304929000087 182.99314880371003 400000.0
251 327.22378522000093 182.99314880371003 400000.0
252 329.54452115000095 182.99314880371003 400000.0
253 331.86525708000096 182.99314880371003 400000.0
254 334.18599301000097 182.99314880371003 400000.0
255 336.506728940001 182.99314880371003 400000.0
256 338.827464870001 182.99314880371003 400000.0
257 341.148200800001 182.99314880371003 400000.0
258 343.468936730001 182.99314880371003 400000.0
259 345.78967266000114 182.99314880371003 400000.0
260 348.11040859000104 182.99314880371003 400000.0
261 350.43114452000106 182.99314880371003 400000.0
262 352.75188045000107 182.99314880371003 400000.0
263 355.0726163800012 182.99314880371003 400000.0
264 357.3933523100012 182.99314880371003 400000.0
265 359.7140882400012 182.99314880371003 400000.0
266 362.03482417000123 182.99314880371003 400000.0
267 364.3555601000011 182.99314880371003 400000.0
268 366.67629603000114 182.99314880371003 400000.0
269 368.9970319600012 182.99314880371003 400000.0
270 371.3177678900012 182.99314880371003 400000.0
271 373.63850382000123 182.99314880371003 400000.0
272 375.95923975000125 182.99314880371003 400000.0
273 378.2799756800012 182.99314880371003 400000.0
274 380.6007116100012 182.99314880371003 400000.0
275 382.9214475400012 182.99314880371003 400000.0
276 385.24218347000124 182.99314880371003 400000.0
277 387.56291940000125 182.99314880371003 400000.0
278 389.8836553300012 182.99314880371003 400000.0
279 392.2043912600013 182.99314880371003 400000.0
280 394.5251271900013 182.99314880371003 400000.0
281 396.8458631200013 182.99314880371003 400000.0
282 399.1665990500013 182.99314880371003 400000.0
283 401.4873349800013 182.99314880371003 400000.0
284 403.8080709100012 182.99314880371003 400000.0
285 406.12880684000135 182.99314880371003 400000.0
286 408.44954277000136 182.99314880371003 400000.0
287 410.77027870000137 182.99314880371003 400000.0
288 413.0910146300014 182.99314880371003 400000.0
289 415.4117505600014 182.99314880371003 400000.0
290 417.73248649000135 182.99314880371003 400000.0
291 420.05322242000136 182.99314880371003 400000.0
292 422.37395835000143 182.99314880371003 400000.0
293 424.69469428000144 182.99314880371003 400000.0
294 427.0154302100015 182.99314880371003 400000.0
295 429.3361661400015 182.99314880371003 400000.0
296 431.6569020700016 182.99314880371003 400000.0
297 433.9776380000016 182.99314880371003 400000.0
298 436.2983739300015 182.99314880371003 400000.0
299 438.6191098600015 182.99314880371003 400000.0
300 440.9398457900015 182.99314880371003 400000.0
301 443.2605817200016 182.99314880371003 400000.0
302 445.5813176500016 182.99314880371003 400000.0
303 447.9020535800016 182.99314880371003 400000.0
304 450.2227895100016 182.99314880371003 400000.0
305 452.5435254400016 182.99314880371003 400000.0
306 454.8642613700016 182.99314880371003 400000.0
307 457.1849973000016 182.99314880371003 400000.0
308 459.5057332300016 182.99314880371003 400000.0
309 461.8264691600016 182.99314880371003 400000.0
310 464.1472050900017 182.99314880371003 400000.0
311 466.46794102000166 182.99314880371003 400000.0
312 468.7886769500017 182.99314880371003 400000.0
313 471.1094128800017 182.99314880371003 400000.0
314 473.4301488100017 182.99314880371003 400000.0
315 475.75088474000165 182.99314880371003 400000.0
316 478.07162067000166 182.99314880371003 400000.0
317 480.3923566000017 182.99314880371003 400000.0
318 482.71309253000175 182.99314880371003 400000.0
319 485.03382846000176 182.99314880371003 400000.0
320 487.35456439000177 182.99314880371003 400000.0
321 489.6753003200018 182.99314880371003 400000.0
322 491.99603625000185 182.99314880371003 400000.0
323 494.3167721800018 182.99314880371003 400000.0
324 496.6375081100018 182.99314880371003 400000.0
325 498.95824404000183 182.99314880371003 400000.0
326 501.27897997000167 182.99314880371003 400000.0
327 503.59971590000185 182.99314880371003 400000.0
328 505.9204518300018 182.99314880371003 400000.0
329 508.24118776000194 182.99314880371003 400000.0
330 510.5619236900019 182.99314880371003 400000.0
331 512.8826596200018 182.99314880371003 400000.0
332 515.2033955500018 182.99314880371003 400000.0
333 517.5241314800019 182.99314880371003 400000.0
334 519.8448674100017 182.99314880371003 400000.0
335 522.1656033400017 182.99314880371003 400000.0
336 524.4863392700016 182.99314880371003 400000.0
337 526.8070752000016 182.99314880371003 400000.0
338 529.1278111300015 182.99314880371003 400000.0
339 531.4485470600015 182.99314880371003 400000.0
340 533.7692829900013 182.99314880371003 400000.0
341 536.0900189200014 182.99314880371003 400000.0
342 538.4107548500014 182.99314880371003 400000.0
343 540.7314907800013 182.99314880371003 400000.0
344 543.0522267100013 182.99314880371003 400000.0
345 545.3729626400012 182.99314880371003 400000.0
346 547.6936985700012 182.99314880371003 400000.0
347 550.0144345000011 182.99314880371003 400000.0
348 552.3351704300012 182.99314880371003 400000.0
349 554.655906360001 182.99314880371003 400000.0
350 556.976642290001 182.99314880371003 400000.0
351 559.297378220001 182.99314880371003 400000.0
352 561.6181141500008 182.99314880371003 400000.0
353 563.9388500800009 182.99314880371003 400000.0
354 566.2595860100008 182.99314880371003 400000.0
355 568.5803219400008 182.99314880371003 400000.0
356 570.9010578700007 182.99314880371003 400000.0
357 573.2217938000008 182.99314880371003 400000.0
358 575.5425297300006 182.99314880371003 400000.0
359 577.8632656600006 182.99314880371003 400000.0
360 580.1840015900005 182.99314880371003 400000.0
361 582.5047375200005 182.99314880371003 400000.0
362 584.8254734500006 182.99314880371003 400000.0
363 587.1462093800004 182.99314880371003 400000.0
364 589.4669453100004 182.99314880371003 400000.0
365 591.7876812400002 182.99314880371003 400000.0
